#Exporttype:,Data All,F3,F4,F5
#FILE:,,,,
#FORMAT:,,,,
#FTYPE:,,,,
#IDENTITY:,1,,,
#DECIMAL:,,,,
#SEPARATOR:,,,,
#MTYPE:,,,,
#INSTRUMENT:,,,,
#PROJECT:,1,,,
#DATE/TIME:,,,,
#LABORATORY:,1,,,
#OPERATOR:,1,,,
#REMARK:,,,,
#SAMPLEHOLDER:,,,,
#SAMPLE:,,,,
#SAMPLEDIM/MM:,,,,
#MATERIAL:,,,,
#CORR. CODE:,0,,,
#RANGE:,,,,
#SEGMENT:,,,,
#SEG. 1:,,,,
,,,,
##Temp./¡ãC,,,,
21.56102,0.88667,0.056564,5353.10596,302.79184
21.83386,0.93667,0.05674,5353.01357,303.7286
22.10627,0.98667,0.056916,5352.92152,304.6642
22.37700,1.03667,0.057091,5352.83018,305.59735
22.64403,1.08667,0.057266,5352.73996,306.52663
22.90367,1.13667,0.057439,5352.65133,307.45039
23.15428,1.18667,0.057611,5352.56483,308.36682
23.39924,1.23667,0.057782,5352.48107,309.27381
23.64005,1.28667,0.05795,5352.40072,310.169
23.87639,1.33667,0.058115,5352.32457,311.04966
24.10616,1.38667,0.058277,5352.25354,311.91267
24.33045,1.43667,0.058435,5352.18867,312.7544
24.55220,1.48667,0.058588,5352.13118,313.57063
24.77276,1.53667,0.058736,5352.08249,314.35645
24.99263,1.58667,0.058876,5352.04429,315.10606
25.21235,1.63667,0.059008,5352.01856,315.81259
25.43265,1.68667,0.059131,5352.00769,316.46782
25.65455,1.73667,0.059242,5352.01453,317.06188
25.87966,1.78667,0.059339,5352.04255,317.58274
26.11043,1.83667,0.059419,5352.09539,318.01784
26.34581,1.88667,0.059485,5352.17105,318.37272
26.58388,1.93667,0.059538,5352.2647,318.66207
26.82415,1.98667,0.059581,5352.37209,318.89828
27.06727,2.03667,0.059615,5352.48941,319.09183
27.31293,2.08667,0.059644,5352.61318,319.25184
27.55841,2.13667,0.059668,5352.74008,319.38635
27.80064,2.18667,0.059688,5352.86688,319.50262
28.03477,2.23667,0.059706,5352.99036,319.60738
28.25632,2.28667,0.059723,5353.10716,319.70703
28.47132,2.33667,0.059741,5353.21375,319.80781
28.68530,2.38667,0.05976,5353.3063,319.91599
28.90320,2.43667,0.059782,5353.38054,320.03805
29.12930,2.48667,0.059808,5353.43167,320.18089
29.36111,2.53667,0.05984,5353.45414,320.35202
29.59635,2.58667,0.059879,5353.44148,320.55988
29.83406,2.63667,0.059927,5353.38597,320.81412
30.07431,2.68667,0.059987,5353.27831,321.12608
30.31793,2.73667,0.06006,5353.11111,321.50464
30.56612,2.78667,0.060144,5352.89051,321.94237
30.82215,2.83667,0.060238,5352.62477,322.42916
31.09279,2.88667,0.06034,5352.32062,322.95648
31.39129,2.93667,0.060449,5351.98363,323.51702
31.72444,2.98667,0.060563,5351.61843,324.1044
32.07617,3.03667,0.060681,5351.22883,324.71298
32.43532,3.08667,0.060802,5350.818,325.33768
32.79419,3.13667,0.060926,5350.38856,325.97381
33.14576,3.18667,0.061051,5349.94267,326.61698
33.48869,3.23667,0.061177,5349.48204,327.26299
33.82286,3.28667,0.061303,5349.00803,327.90768
34.14338,3.33667,0.061428,5348.52164,328.54689
34.43816,3.38667,0.061552,5348.02356,329.17633
34.70091,3.43667,0.061672,5347.51415,329.79143
34.94440,3.48667,0.06179,5346.99344,330.38728
35.17727,3.53667,0.061903,5346.4611,330.95844
35.40462,3.58667,0.06201,5345.91642,331.49875
35.62971,3.63667,0.06211,5345.35825,332.0011
35.85457,3.68667,0.062202,5344.78511,332.45918
36.07978,3.73667,0.062287,5344.19601,332.87754
36.30567,3.78667,0.062367,5343.58957,333.26393
36.53299,3.83667,0.062441,5342.96363,333.62508
36.76314,3.88667,0.062513,5342.31523,333.96695
36.99652,3.93667,0.062582,5341.64062,334.29495
37.23368,3.98667,0.06265,5340.93522,334.61415
37.47695,4.03667,0.062717,5340.19349,334.92934
37.73154,4.08667,0.062785,5339.40893,335.24527
38.00277,4.13667,0.062855,5338.57384,335.56667
38.28317,4.18667,0.062928,5337.67918,335.89844
38.56550,4.23667,0.063004,5336.71433,336.24575
38.84356,4.28667,0.063086,5335.66683,336.61419
39.10999,4.33667,0.063174,5334.52194,337.00989
39.36519,4.38667,0.063269,5333.26222,337.43975
39.61322,4.43667,0.063375,5331.8669,337.91164
39.85573,4.48667,0.063492,5330.31106,338.43469
40.09266,4.53667,0.063623,5328.56461,339.01965
40.32204,4.58667,0.063771,5326.59095,339.67935
40.54245,4.63667,0.063937,5324.36789,340.42087
40.75752,4.68667,0.064119,5321.92158,341.23295
40.96987,4.73667,0.064315,5319.2793,342.10329
41.18098,4.78667,0.064523,5316.46191,343.02133
41.39186,4.83667,0.064739,5313.48492,343.97787
41.60316,4.88667,0.064963,5310.3592,344.96471
41.81543,4.93667,0.065193,5307.09158,345.97448
42.02966,4.98667,0.065429,5303.68516,347.00033
42.24765,5.03667,0.065668,5300.13949,348.03582
42.47274,5.08667,0.065909,5296.45073,349.07475
42.70597,5.13667,0.066152,5292.61148,350.11097
42.94320,5.18667,0.066396,5288.61082,351.13829
43.18170,5.23667,0.06664,5284.43377,352.1503
43.41940,5.28667,0.066882,5280.06097,353.14021
43.65467,5.33667,0.067122,5275.46807,354.10072
43.88815,5.38667,0.067358,5270.62485,355.02375
44.12073,5.43667,0.06759,5265.49414,355.90024
44.35293,5.48667,0.067816,5260.03037,356.71981
44.58517,5.53667,0.068035,5254.17756,357.47041
44.81784,5.58667,0.068245,5247.8736,358.13916
45.05102,5.63667,0.068447,5241.1331,358.72893
45.28475,5.68667,0.068642,5234.02224,359.25336
45.51932,5.73667,0.068832,5226.59641,359.72423
45.75539,5.78667,0.069018,5218.90079,360.15174
45.99380,5.83667,0.0692,5210.97256,360.54482
46.23379,5.88667,0.069381,5202.84228,360.91146
46.47467,5.93667,0.06956,5194.535,361.25898
46.71615,5.98667,0.06974,5186.0711,361.59419
46.95824,6.03667,0.069921,5177.46695,361.92359
47.20095,6.08667,0.070104,5168.73531,362.25355
47.44411,6.13667,0.07029,5159.88574,362.59045
47.68777,6.18667,0.07048,5150.92469,362.94086
47.93221,6.23667,0.070676,5141.85592,363.31164
48.17794,6.28667,0.070878,5132.68006,363.71021
48.42480,6.33667,0.071089,5123.39474,364.14472
48.67265,6.38667,0.071311,5113.99435,364.6243
48.92171,6.43667,0.071545,5104.4696,365.15938
49.17263,6.48667,0.071794,5094.80694,365.76209
49.42660,6.53667,0.072061,5084.98891,366.44615
49.68346,6.58667,0.072346,5075.0165,367.21418
49.94179,6.63667,0.072649,5064.9088,368.05838
50.20068,6.68667,0.072967,5054.6813,368.97314
50.45946,6.73667,0.073301,5044.34559,369.95517
50.71747,6.78667,0.07365,5033.91034,371.00326
50.97452,6.83667,0.074015,5023.38112,372.11814
51.23075,6.88667,0.074397,5012.76109,373.30232
51.48587,6.93667,0.074798,5002.05109,374.56015
51.73907,6.98667,0.075218,4991.2497,375.89779
51.98933,7.03667,0.075661,4980.35332,377.32335
52.23766,7.08667,0.076129,4969.35604,378.84707
52.48497,7.13667,0.076625,4958.24953,380.48153
52.73163,7.18667,0.077154,4947.02281,382.242
52.97769,7.23667,0.07772,4935.66192,384.14686
53.22318,7.28667,0.07833,4924.14935,386.21819
53.46816,7.33667,0.078991,4912.46393,388.48239
53.71255,7.38667,0.07971,4900.57928,390.97126
53.95608,7.43667,0.080498,4888.46334,393.72313
54.19820,7.48667,0.081368,4876.07681,396.78448
54.43825,7.53667,0.08233,4863.38161,400.19844
54.67709,7.58667,0.083378,4850.39015,403.93906
54.91585,7.63667,0.0845,4837.12617,407.96186
55.15564,7.68667,0.085686,4823.60343,412.23185
55.39806,7.73667,0.08693,4809.8269,416.72182
55.64408,7.78667,0.088224,4795.79356,421.41114
55.89187,7.83667,0.089567,4781.4927,426.28484
56.13982,7.88667,0.090953,4766.9066,431.3328
56.38642,7.93667,0.092382,4752.00956,436.54958
56.62972,7.98667,0.093853,4736.76806,441.93399
56.86996,8.03667,0.095366,4721.13993,447.48905
57.10895,8.08667,0.096923,4705.07343,453.22198
57.34793,8.13667,0.098525,4688.50525,459.14473
57.58814,8.18667,0.10018,4671.3606,465.27359
57.83048,8.23667,0.10189,4653.54833,471.6308
58.07412,8.28667,0.10365,4634.95986,478.24459
58.31818,8.33667,0.10549,4615.46487,485.15048
58.56192,8.38667,0.10741,4594.90574,492.39292
58.80452,8.43667,0.10942,4573.09111,500.02723
59.04491,8.48667,0.11154,4549.80543,508.11595
59.28341,8.53667,0.11377,4525.04565,516.6475
59.52131,8.58667,0.11611,4498.95686,525.55648
59.75964,8.63667,0.11855,4471.64094,534.78825
59.99965,8.68667,0.12109,4443.16056,544.29754
60.24284,8.73667,0.12375,4413.53974,554.04792
60.48843,8.78667,0.12653,4382.77062,564.00918
60.73508,8.83667,0.12944,4350.81344,574.15674
60.98191,8.88667,0.1325,4317.59651,584.47106
61.22808,8.93667,0.13574,4283.01629,594.93665
61.47293,8.98667,0.13916,4246.93607,605.54159
61.71698,9.03667,0.14281,4209.182,616.27745
61.96088,9.08667,0.14672,4169.5384,627.13926
62.20521,9.13667,0.15092,4127.74293,638.12506
62.45067,9.18667,0.15547,4083.47938,649.23592
62.69724,9.23667,0.16043,4036.36496,660.47673
62.94424,9.28667,0.16585,3985.94133,671.85548
63.19113,9.33667,0.17183,3931.65379,683.38469
63.43732,9.38667,0.17846,3872.82986,695.08176
63.68200,9.43667,0.18587,3808.65336,706.96956
63.92473,9.48667,0.19411,3738.71015,719.04602
64.16661,9.53667,0.20307,3663.77492,731.23899
64.40866,9.58667,0.21264,3584.65531,743.46603
64.65194,9.63667,0.22272,3502.0288,755.64276
64.89803,9.68667,0.23323,3416.46976,767.68104
65.14680,9.73667,0.24411,3328.46668,779.48768
65.39669,9.78667,0.2553,3238.44772,790.96135
65.64654,9.83667,0.26674,3146.7842,801.99178
65.89519,9.88667,0.2784,3053.80623,812.45683
66.14138,9.93667,0.29023,2959.8132,822.21965
66.38572,9.98667,0.30219,2865.07923,831.1259
66.62913,10.03667,0.31427,2769.85781,839.00011
66.87207,10.08667,0.32643,2674.39009,845.64096
67.11481,10.13667,0.33865,2578.91213,850.81558
67.35745,10.18667,0.3509,2483.65787,854.25286
67.59998,10.23667,0.36316,2388.86365,855.63465
67.84233,10.28667,0.37541,2294.77684,854.58437
68.08438,10.33667,0.38762,2201.66623,850.65276
68.32588,10.38667,0.39978,2109.82291,843.29876
68.56658,10.43667,0.41186,2019.51201,832.03921
68.80699,10.48667,0.42384,1930.6724,817.23071
69.04791,10.53667,0.43573,1843.16437,799.45144
69.29036,10.58667,0.4475,1756.89545,779.18888
69.53604,10.63667,0.45913,1671.81407,756.8592
69.78625,10.68667,0.4706,1587.90278,732.82178
70.03885,10.73667,0.48188,1505.17603,707.39105
70.29189,10.78667,0.49292,1423.68141,680.84685
70.54356,10.83667,0.5037,1343.49818,653.44192
70.79152,10.88667,0.51416,1264.73671,625.408
71.03434,10.93667,0.52424,1187.54336,596.9624
71.27463,10.98667,0.53389,1112.10028,568.31197
71.51464,11.03667,0.54302,1038.63139,539.65831
71.75643,11.08667,0.55156,967.41025,511.20312
72.00247,11.13667,0.55938,898.76641,483.15244
72.25223,11.18667,0.56639,833.09417,455.72107
72.50433,11.23667,0.57243,770.86754,429.13901
72.75815,11.28667,0.57733,712.65869,403.65875
73.01359,11.33667,0.5809,659.15882,379.56279
73.27112,11.38667,0.58288,611.20224,357.17182
73.53089,11.43667,0.58317,569.16877,336.64527
73.79160,11.48667,0.58199,532.28257,317.74832
74.05209,11.53667,0.57957,499.76475,300.24243
74.31108,11.58667,0.57609,470.96868,283.93161
74.56674,11.63667,0.57171,445.35298,268.65389
74.81869,11.68667,0.56657,422.4616,254.2751
75.06840,11.73667,0.56078,401.9092,240.68461
75.31657,11.78667,0.55444,383.36888,227.79169
75.56328,11.83667,0.54763,366.56207,215.52238
75.80808,11.88667,0.54043,351.25118,203.81736
76.05080,11.93667,0.5329,337.2342,192.63089
76.29167,11.98667,0.52511,324.33973,181.92952
76.52996,12.03667,0.51709,312.42301,171.69117
76.76356,12.08667,0.5089,301.36371,161.90531
76.99005,12.13667,0.50057,291.06337,152.57266
77.21188,12.18667,0.49215,281.44428,143.70586
77.43160,12.23667,0.48366,272.44903,135.33071
77.65106,12.28667,0.47514,264.04038,127.4876
77.87208,12.33667,0.46661,256.20183,120.23349
78.09685,12.38667,0.45811,248.93803,113.64285
78.32596,12.43667,0.44964,242.22136,107.71821
78.55792,12.48667,0.4412,235.97154,102.36142
78.79226,12.53667,0.4328,230.11949,97.48541
79.02945,12.58667,0.42444,224.60898,93.0185
79.27107,12.63667,0.41611,219.39402,88.90124
79.51694,12.68667,0.40782,214.43714,85.08418
79.76449,12.73667,0.39957,209.70807,81.52619
80.01175,12.78667,0.39137,205.18257,78.19292
80.25660,12.83667,0.38322,200.84155,75.05578
80.49661,12.88667,0.37513,196.67067,72.09117
80.73312,12.93667,0.36711,192.65996,69.27993
80.96809,12.98667,0.35918,188.80349,66.60674
81.20265,13.03667,0.35133,185.09918,64.05982
81.43768,13.08667,0.3436,181.54933,61.631
81.67347,13.13667,0.336,178.16023,59.31522
81.90979,13.18667,0.32854,174.94299,57.11095
82.14664,13.23667,0.32126,171.91406,55.02026
82.38416,13.28667,0.31419,169.09606,53.04914
82.62277,13.33667,0.30737,166.51874,51.20796
82.86270,13.38667,0.3008,164.19271,49.49892
83.10363,13.43667,0.29447,162.08552,47.90435
83.34556,13.48667,0.28834,160.16674,46.40789
83.58891,13.53667,0.28238,158.41213,44.99639
83.83469,13.58667,0.27658,156.80267,43.65938
84.08319,13.63667,0.27092,155.32346,42.3885
84.33365,13.68667,0.26539,153.96332,41.17727
84.58619,13.73667,0.25998,152.71427,40.02081
84.84196,13.78667,0.2547,151.5712,38.91565
85.10272,13.83667,0.24954,150.53171,37.85964
85.36646,13.88667,0.2445,149.59608,36.85188
85.63061,13.93667,0.23959,148.76719,35.89271
85.89280,13.98667,0.23482,148.05067,34.9837
86.14985,14.03667,0.2302,147.45514,34.12776
86.40135,14.08667,0.22575,146.99252,33.32926
86.64979,14.13667,0.22149,146.67852,32.59421
86.89673,14.18667,0.21745,146.53334,31.93055
87.14322,14.23667,0.21367,146.58253,31.34851
87.39015,14.28667,0.21018,146.85822,30.86108
87.63813,14.33667,0.207,147.3785,30.47527
87.88732,14.38667,0.20411,148.11401,30.1778
88.13834,14.43667,0.20144,149.034,29.95466
88.39265,14.48667,0.19897,150.11371,29.79414
88.65307,14.53667,0.19666,151.33315,29.68638
88.91935,14.58667,0.19449,152.67633,29.62301
89.18817,14.63667,0.19243,154.13067,29.59682
89.45715,14.68667,0.19045,155.68643,29.60158
89.72396,14.73667,0.18855,157.33652,29.63183
89.98601,14.78667,0.1867,159.07618,29.68274
90.24443,14.83667,0.18489,160.90285,29.74999
90.50113,14.88667,0.1831,162.81608,29.82966
90.75716,14.93667,0.18132,164.81762,29.91815
91.01312,14.98667,0.17953,166.91151,30.01208
91.26918,15.03667,0.17772,169.10414,30.10825
91.52503,15.08667,0.17588,171.40462,30.20355
91.78027,15.13667,0.17399,173.82523,30.29487
92.03432,15.18667,0.17203,176.38193,30.37905
92.28624,15.23667,0.16999,179.09494,30.45277
92.53477,15.28667,0.16784,181.98547,30.51293
92.78124,15.33667,0.1656,185.04097,30.56016
93.02807,15.38667,0.16328,188.23434,30.59673
93.27789,15.43667,0.16089,191.54287,30.62458
93.53448,15.48667,0.15846,194.94727,30.64542
93.80297,15.53667,0.15599,198.43096,30.66073
94.08032,15.58667,0.1535,201.97955,30.67188
94.36139,15.63667,0.15099,205.58043,30.6801
94.64277,15.68667,0.14848,209.22227,30.68657
94.92118,15.73667,0.14598,212.89471,30.69242
95.19418,15.78667,0.1435,216.58824,30.69876
95.46358,15.83667,0.14104,220.29379,30.70673
95.73040,15.88667,0.13863,224.00265,30.71748
95.99426,15.93667,0.13627,227.70628,30.73225
96.25366,15.98667,0.13398,231.39594,30.75239
96.50950,16.03667,0.13178,235.06259,30.77936
96.76349,16.08667,0.12968,238.69652,30.81483
97.01661,16.13667,0.1277,242.28742,30.86071
97.26957,16.18667,0.12588,245.8235,30.91922
97.52298,16.23667,0.12424,249.29186,30.99285
97.77710,16.28667,0.12278,252.6911,31.08173
98.03199,16.33667,0.12147,256.03065,31.18348
98.28809,16.38667,0.12029,259.31913,31.29603
98.54635,16.43667,0.11922,262.56291,31.41765
98.80830,16.48667,0.11824,265.76741,31.54686
99.07304,16.53667,0.11735,268.93692,31.68244
99.33903,16.58667,0.11652,272.07433,31.82329
99.60527,16.63667,0.11575,275.18217,31.96849
99.87091,16.68667,0.11504,278.262,32.11721
100.13539,16.73667,0.11436,281.31452,32.26869
100.39903,16.78667,0.11372,284.3401,32.4223
100.66190,16.83667,0.11312,287.338,32.5774
100.92364,16.88667,0.11254,290.30713,32.73343
101.18358,16.93667,0.11199,293.24533,32.88984
101.44221,16.98667,0.11146,296.14977,33.0461
101.70043,17.03667,0.11095,299.01675,33.20169
101.95902,17.08667,0.11046,301.84102,33.35605
102.21884,17.13667,0.10998,304.61633,33.50863
102.48116,17.18667,0.10953,307.33487,33.65881
102.74616,17.23667,0.10909,309.99446,33.80642
103.01226,17.28667,0.10867,312.60226,33.95191
103.27817,17.33667,0.10827,315.16424,34.09568
103.54251,17.38667,0.10788,317.68512,34.23812
103.80336,17.43667,0.1075,320.16831,34.37958
104.06053,17.48667,0.10713,322.61624,34.52037
104.31608,17.53667,0.10678,325.03057,34.66081
104.57162,17.58667,0.10644,327.41178,34.80118
104.82872,17.63667,0.10611,329.75985,34.9418
105.08952,17.68667,0.10579,332.07399,35.08297
105.35408,17.73667,0.10549,334.3523,35.225
105.62006,17.78667,0.10521,336.59242,35.36823
105.88570,17.83667,0.10494,338.79093,35.51302
106.14906,17.88667,0.1047,340.94335,35.65978
106.40861,17.93667,0.10447,343.04433,35.80896
106.66604,17.98667,0.10428,345.08685,35.96106
106.92319,18.03667,0.10412,347.06273,36.11668
107.18183,18.08667,0.10399,348.96166,36.27647
107.44417,18.13667,0.1039,350.77121,36.44124
107.71347,18.18667,0.10386,352.47659,36.61194
107.99023,18.23667,0.10388,354.07514,36.78871
108.27076,18.28667,0.10393,355.58264,36.97069
108.55253,18.33667,0.10402,357.01333,37.15706
108.83346,18.38667,0.10415,358.37893,37.34715
109.11126,18.43667,0.10429,359.68945,37.54038
109.38530,18.48667,0.10446,360.9532,37.73628
109.65666,18.53667,0.10465,362.17732,37.93445
109.92529,18.58667,0.10486,363.36786,38.13454
110.18990,18.63667,0.10508,364.53005,38.33623
110.44810,18.68667,0.1053,365.66849,38.5393
110.70211,18.73667,0.10554,366.78702,38.74349
110.95578,18.78667,0.10579,367.88914,38.94862
111.21284,18.83667,0.10604,368.9779,39.15453
111.47862,18.88667,0.1063,370.05588,39.36104
111.75423,18.93667,0.10656,371.1255,39.56803
112.03483,18.98667,0.10682,372.18883,39.77538
112.31679,19.03667,0.10709,373.24773,39.98298
112.59700,19.08667,0.10736,374.30388,40.19074
,,,,
